Decimal day (2019)             r / R_J       theta / radians         phi / radians               B_r / nT              B_t / nT              B_p / nT    Error / nT    Range 
    149.302147836   1.9882441892533909    0.3256489962450657    2.8609319664422479    113939.966829385317      392.242830206604   -10522.752951401320        18.693        5 
    149.302495058   1.9764923932808234    0.3203730567119472    2.8432617201439916    115794.957973762270      210.589622423919   -11057.703272486417        18.882        5 
    149.302911910   1.9623941176565536    0.3140200480094179    2.8213132209245653    118033.911737370538       -8.101100721244   -11692.269988419182        19.111        5 
    149.303259306   1.9506535850611779    0.3087132441170454    2.8023677307973154    119925.419079899933     -179.101854182023   -12242.315301812849        19.305        5 
    149.303629502   1.9381528197023143    0.3030505628945527    2.7814809420008149    121980.605523296530     -345.988745052557   -12873.561946140491        19.516        5 
    149.303976725   1.9264375599887791    0.2977362039912978    2.7611924379388046    123951.526197451371     -500.259065418417   -13483.664409873607        19.718        5 
    149.304324120   1.9147265427676798    0.2924208674981448    2.7401735334045063    125958.176177510060     -629.156093185789   -14075.803580763852        19.924        5 
    149.304694317   1.9022595770521395    0.2867646502333472    2.7169317143810052    128087.272215527817     -739.605669015917   -14755.352489050636        20.144        5 
    149.305041713   1.8905722101939326    0.2814699297438593    2.6942761883686370    130147.520047359882     -844.741380044303   -15432.786519339215        20.356        5 
    149.305389120   1.8788974717131488    0.2761946729079729    2.6707493653583594    132226.520962411800     -906.138459253656   -16134.074119633655        20.571        5 
    149.305736343   1.8672422017868280    0.2709487590806064    2.6463084338504266    134360.691977863869     -950.792657852129   -16836.503123628750        20.791        5 
    149.306083738   1.8555950904680285    0.2657346595067085    2.6208687132509003    136491.024454221973     -954.176817330292   -17585.345703376108        21.012        5 
    149.306430961   1.8439690988690565    0.2605666303305678    2.5943943179221427    138653.365888607019     -939.089598916136   -18370.793275535958        21.237        5 
    149.306778183   1.8323590619644912    0.2554517246013864    2.5668068189006972    140858.598634596419     -900.768048938568   -19175.817782021259        21.466        5 
    149.307125590   1.8207598157817091    0.2503981778387556    2.5380225690015772    143091.541184443951     -792.709795415212   -19979.656882214778        21.698        5 
    149.307472813   1.8091843770427884    0.2454232611451066    2.5080006422516603    145362.522779929510     -659.872639123772   -20820.874094048217        21.935        5 
    149.307820208   1.7976216610829190    0.2405350343877760    2.4766368940990668    147646.097487091494     -421.357263636761   -21682.021311186665        22.173        5 
    149.308167431   1.7860846853763024    0.2357532073656390    2.4438901372085824    149949.304063815798     -180.244369009895   -22581.103459338512        22.414        5 
    149.308514653   1.7745684593954874    0.2310912273584343    2.4096704450620652    152313.680600324005      142.648200917036   -23497.057378868842        22.662        5 
    149.308862060   1.7630680649541168    0.2265643686277761    2.3738862960638381    154697.441281151434      556.633029634308   -24403.702326184481        22.911        5 
    149.309209282   1.7515965667411364    0.2221965029952769    2.3365054725056860    157096.703230837360     1016.365468792501   -25339.019152567016        23.163        5 
    149.309556505   1.7401490820943810    0.2180060611286642    2.2974457260226537    159562.509367094463     1605.522779280924   -26291.957800673608        23.422        5 
    149.309903727   1.7287268065954300    0.2140155642393460    2.2566510384135583    162029.865397846355     2269.304807039276   -27237.603025806831        23.682        5 
    149.310251123   1.7173249970726312    0.2102472332600017    2.2140538218540691    164518.997143442888     3045.741104699417   -28177.360617388837        23.944        5 
    149.310598530   1.7059508600573565    0.2067289990557387    2.1696446362052564    167070.004472181085     3948.098893212904   -29151.226856813657        24.214        5 
    149.310945752   1.6946115638613486    0.2034897011825118    2.1234362948798897    169611.358509213984     4933.986823237021   -30065.299350898120        24.483        5 
    149.311292975   1.6833025072240793    0.2005558517659015    2.0754172547048029    172204.758473073278     6037.804207870344   -30976.976078741449        24.757        5 
    149.311640197   1.6720250720606160    0.1979568165784454    2.0256254088856958    174834.741133537435     7319.281887618927   -31859.387862639858        25.036        5 
    149.311987593   1.6607747990124551    0.1957214281695958    1.9741019834416731    177469.658335910615     8698.741695014214   -32694.958489294208        25.317        5 
    149.312334815   1.6495648535857239    0.1938820099816506    1.9210030168593382    180154.523359664629    10192.585721935589   -33474.510928562551        25.602        5 
    149.312682222   1.6383850811430827    0.1924661239500836    1.8664113863760925    182856.977533675585    11845.745140355335   -34175.493844361961        25.890        5 
    149.313029630   1.6272428520769786    0.1915032349697222    1.8105290511045555    185589.719295450894    13617.871150124352   -34807.812818962833        26.182        5 
    149.313376852   1.6161455426588984    0.1910200183910230    1.7535955162220862    188358.819260157703    15505.580656935927   -35355.598441087059        26.477        5 
    149.313724248   1.6050832342669032    0.1910400504494912    1.6957924704784821    191158.329865109175    17499.304396202140   -35807.519748647348        26.777        5 
    149.314071655   1.5940634222499557    0.1915846966560395    1.6374163963675838    193963.849672351178    19577.373736236856   -36176.194755302145        27.078        5 
    149.314418877   1.5830935508166653    0.1926706134786849    1.5787830720944476    196821.679751493299    21757.501409173397   -36424.153909987101        27.384        5 
    149.314766100   1.5721696869851729    0.1943112363801925    1.5201564551560087    199697.118888695026    23994.766070543614   -36592.490964376600        27.694        5 
    149.315113495   1.5612880189594329    0.1965168884067754    1.4618001681353012    202613.611699294182    26279.043783482593   -36628.750095503412        28.007        5 
    149.315460718   1.5504618005510071    0.1992899806772353    1.4040587358448484    205549.829944663827    28587.082297426168   -36615.549948354739        28.323        5 
    149.315807940   1.5396873018897246    0.2026320423517806    1.3471665509736210    208512.312570390117    30916.043106329045   -36480.779158935620        28.643        5 
    149.316155347   1.5289610149874338    0.2065418526339477    1.2913333252323225    211502.108183869364    33257.259433438579   -36292.720625523172        28.966        5 
    149.316502743   1.5182906250988146    0.2110109353223468    1.2367959587704844    214523.611062592245    35548.533785856198   -36060.751977823355        29.292        5 
    149.316850150   1.5076783069683457    0.2160294269393693    1.1837262280569316    217569.801772015810    37866.007753062790   -35788.506858338398        29.622        5 
    149.317197373   1.4971317509715460    0.2215820228433145    1.1322859611257829    220632.318249849952    40198.274877433658   -35485.315238578827        29.955        5 
    149.317544780   1.4866422331663913    0.2276603941498945    1.0825211979798530    223735.362693228060    42455.913033143697   -35189.521754420268        30.293        5 
    149.317892176   1.4762176276678076    0.2342463861049745    1.0345253109700880    226882.549031463132    44719.146687226043   -34786.196992498211        30.635        5 
    149.318239398   1.4658657098787138    0.2413200026479607    0.9883574362575502    230010.706114452565    47015.788499819115   -34470.757820264254        30.978        5 
    149.318586806   1.4555781726509700    0.2488721073805462    0.9439786333470493    233180.473001258913    49245.515910699352   -34189.694174015676        31.326        5 
    149.318934201   1.4453629658445850    0.2568826490064520    0.9014000548330013    236428.904714697623    51311.834835192683   -33748.050221527563        31.678        5 
    149.319281424   1.4352279698677088    0.2653309443836933    0.8606109270772915    239658.952194704005    53477.040281048045   -33493.164040340300        32.033        5 
    149.319628646   1.4251705268915920    0.2742054542896536    0.8215425963714974    242920.364613825397    55581.053519105109   -33288.952800112209        32.391        5 
    149.319976053   1.4151882275863654    0.2834962503691348    0.7841191727839324    246207.546844151948    57652.122621204981   -33175.686760866927        32.753        5 
    149.320323449   1.4052891267445697    0.2931847386761931    0.7482968132576644    249541.349621486821    59767.451979079662   -33094.194424300302        33.122        5 
    149.320670856   1.3954761454841065    0.3032577374304315    0.7140055512292002    252858.467301431781    61874.799966627019   -33129.426229559940        33.492        5 
    149.321018079   1.3857572695782616    0.3136974379783980    0.6811892416192138    256201.846705568081    63967.132492047720   -33266.372748738635        33.865        5 
    149.321365475   1.3761254384870094    0.3245033529272901    0.6497396508457304    259584.130199780455    66066.022652736021   -33521.028218063017        34.245        5 
    149.321712697   1.3665937728543380    0.3356537958216875    0.6196155488813799    262972.360239638365    68194.222413885582   -33876.446364138712        34.627        5 
    149.322060104   1.3571555320825179    0.3471507718584189    0.5907127906634873    266372.386524590722    70362.836880349598   -34345.964620024293        35.014        5 
    149.322407512   1.3478189683868391    0.3589797574468426    0.5629765451620310    269806.012474506162    72589.962967160085   -34971.228028095640        35.408        5 
    149.322754907   1.3385874081036637    0.3711327054256291    0.5363385047773429    273221.134243300534    74883.793267763554   -35722.805885112452        35.804        5 
    149.323102130   1.3294689643727284    0.3835956572311760    0.5107462831631163    276639.921703590080    77263.162372494611   -36627.043371797750        36.205        5 
    149.323449352   1.3204622547223874    0.3963681645214057    0.4861235803621247    280043.843619714433    79764.355990588796   -37666.121823056528        36.611        5 
    149.323814664   1.3111109549363067    0.4101332711972715    0.4612003730453061    283609.036156972346    82516.931670273378   -38967.766984371599        37.043        5 
    149.324161887   1.3023446834827435    0.4235222122494181    0.4383862685646882    286948.088495924894    85292.136587997287   -40354.611383822936        37.456        5 
    149.324509282   1.2936966484428840    0.4372105997302954    0.4163608409067905    290255.406240815646    88266.018399008070   -41898.934884948685        37.876        5 
    149.324925764   1.2834960770537664    0.4539997903530188    0.3909422257062296    294093.375191183703    92126.595415125208   -43974.931114056111        38.381        5 
    149.325273171   1.2751313697352189    0.4683148997846363    0.3705092116837778    297194.247069664649    95634.308861588157   -45890.331765949326        38.806        5 
    149.325620394   1.2669058886317655    0.4829005201458597    0.3507406612466205    300121.645376017492    99411.254298200118   -47961.886028306799        39.227        5 
    149.325967616   1.2588191362931893    0.4977600594514804    0.3315860825406040    302869.584297384019   103531.395536714583   -50210.785187199122        39.649        5 
    149.326315023   1.2508709659298269    0.5128976926063582    0.3129988932010127    305358.905452003935   108018.168587024367   -52564.430958463810        40.064        5 
    149.326662419   1.2430696473381848    0.5283020667940420    0.2949545602957704    307554.600971758366   112922.338245290041   -55050.651722889583        40.472        5 
    149.327009826   1.2354191882140986    0.5439695953724357    0.2774207260315176    309348.513457363762   118227.296829526385   -57637.917008465738        40.865        5 
    149.327357049   1.2279275437257791    0.5598883482559521    0.2603759273351712    310665.892650186084   124002.411289105032   -60269.308085556186        41.239        5 
    149.327704444   1.2205910113742904    0.5760713848969089    0.2437742659478724    311443.336741316423   130270.575376025183   -62945.283473893003        41.591        5 
    149.328051667   1.2134213429260532    0.5924982555861112    0.2276067325973118    311544.089548236283   136982.888329437876   -65591.189679161878        41.909        5 
    149.328399074   1.2064152256401182    0.6091824376325657    0.2118319295207442    310848.430667382316   144172.373958366574   -68169.396382438877        42.187        5 
    149.328768356   1.1991558978059658    0.6271861564777793    0.1954777853365490    309130.455098925740   152283.034180658811   -70742.853399398213        42.429        5 
    149.329115579   1.1925114876271545    0.6443626749622953    0.1804676467973561    306486.311690742616   160263.012298524234   -72937.269579595086        42.597        5 
    149.329462801   1.1860469235716242    0.6617758998323893    0.1657927595803787    302747.571987893374   168511.387792944501   -74812.816313117713        42.697        5 
    149.329810208   1.1797631270151243    0.6794308733454913    0.1514270600096366    297799.645478646678   176883.115832046082   -76281.685018732474        42.717        5 
    149.330157431   1.1736707316355732    0.6973048213808627    0.1373680668978322    291619.508371095348   185229.527960088482   -77288.405424021708        42.651        5 
    149.330504826   1.1677674901549211    0.7154117157292055    0.1235847384565281    284201.231998056639   193402.477112005465   -77724.792327982170        42.494        5 
    149.330852049   1.1620635777085766    0.7337278749950310    0.1100760819912955    275538.356675610761   201200.852845870802   -77516.577678847199        42.237        5 
    149.331199271   1.1565598710245357    0.7522575275655384    0.0968205156248116    265777.179871235916   208397.035039232171   -76655.933782258056        41.883        5 
    149.331546678   1.1512575797260811    0.7710051034441309    0.0837978188710817    254969.050454833661   214864.522105630633   -75062.120595788176        41.428        5 
    149.331893900   1.1461660920918180    0.7899454197833476    0.0710088692358408    243387.242265937995   220352.024673144741   -72725.619285762194        40.878        5 
    149.332241123   1.1412863624194329    0.8090821951030110    0.0584349176820212    231216.214469546219   224812.220183703263   -69713.829667889979        40.244        5 
    149.332588345   1.1366220907010960    0.8284091715360782    0.0460647635086330    218722.049308627844   228123.319309719169   -66103.499873483757        39.538        5 
    149.332935741   1.1321746036097458    0.8479299509410051    0.0338815730296020    206186.386047231033   230259.215008767671   -61958.048045354277        38.773        5 
    149.333283148   1.1279498515556794    0.8676276062767003    0.0218818874859076    193913.465311588050   231269.312937190058   -57465.414598508032        37.973        5 
    149.333630370   1.1239532294875143    0.8874845117653274    0.0100624612143249    182079.941318583675   231273.102882889507   -52760.233586973525        37.154        5 
    149.333977593   1.1201856807793293    0.9075033459754007    6.2815934728404716    170851.933660424140   230425.469940694689   -47950.414875550872        36.334        5 
    149.334324815   1.1166502997393493    0.9276762618465356    6.2700959506217409    160397.764910724014   228872.580121288454   -43258.538753172310        35.531        5 
    149.334672211   1.1133483250324625    0.9480056949509917    6.2587414460308652    150716.989736542397   226773.928055161668   -38749.127998896307        34.753        5 
    149.335019433   1.1102859633391295    0.9684620207413935    6.2475343381601309    141790.247831975226   224318.862364884699   -34527.782558352286        34.011        5 
    149.335388715   1.1072928885367550    0.9903591752992041    6.2357624425402296    133128.850935887604   221413.139699650230   -30469.357082814939        33.265        5 
    149.335735938   1.1047292579320644    1.0110711158529730    6.2248253578042663    125756.986757248204   218522.417848429293   -27061.316505829505        32.607        5 
    149.336083345   1.1024096456568822    1.0319036645915016    6.2140036497533568    118988.435836392469   215570.480136802013   -24054.034408114781        31.990        5 
    149.336430567   1.1003384468592627    1.0528255774819717    6.2033026297662444    112861.260468237830   212620.212490520906   -21451.430958398174        31.417        5 
    149.336777963   1.0985152969268479    1.0738488544341442    6.1927054446659549    107251.878069960818   209713.760739592137   -19277.590345496152        30.884        5 
    149.337125370   1.0969429346506905    1.0949525953197070    6.1822123152286261    102169.755460762623   206937.843316957646   -17478.622509510296        30.395        5 
    149.337472593   1.0956233177309680    1.1161155766109760    6.1718234781621240     97512.170129883889   204311.082524259982   -16004.095725910913        29.945        5 
    149.337820000   1.0945562078941280    1.1373495030292897    6.1615232229249104     93254.502609545074   201906.213827697822   -14865.975665650625        29.540        5 
    149.338189641   1.0936998921704975    1.1599970755200968    6.1506614915634668     89087.380886671017   199601.575272257149   -13994.536109066779        29.153        5 
    149.338537049   1.0931581183638961    1.1813214644082657    6.1405408679524260     85451.441057589138   197673.854254924780   -13410.574175934384        28.827        5 
    149.338884271   1.0928717235636396    1.2026622793567501    6.1305059039348437     82023.015606718895   196071.799559507170   -13043.723436093595        28.544        5 
    149.339231667   1.0928405982714373    1.2240310473270841    6.1205421537433464     78704.144561479246   194692.110118640761   -12931.546342589321        28.290        5 
    149.339579074   1.0930648983660756    1.2454059459224096    6.1106510277883777     75520.120479082747   193592.781612425752   -12992.595328827036        28.071        5 
    149.339926470   1.0935443405615595    1.2667762820918993    6.1008288661425647     72395.874836978939   192717.943075644202   -13222.851743994175        27.879        5 
    149.340273692   1.0942779476458520    1.2881203066122353    6.0910772341030075     69339.948421498702   192056.609792867850   -13607.636885863070        27.714        5 
    149.340621100   1.0952657314521637    1.3094496907906783    6.0813826127592829     66341.034612155199   191596.488472799712   -14075.105764620348        27.574        5 
    149.340968322   1.0965056957502277    1.3307317799728906    6.0717519328735099     63448.095497825576   191363.890002768690   -14674.293767631687        27.464        5 
    149.341315718   1.0979979068802195    1.3519784588928814    6.0621720893429956     60651.280597812787   191451.640598735481   -15321.783449775114        27.391        5 
